Motion Through Fluids Experiment Thu, Oct 29, 2020 10:17 AM
Time(sec)	Position(mm)
0.006	0.000
0.106	0.000
0.156	0.000
0.206	0.000
0.256	0.000
0.307	0.000
0.356	0.000
0.406	0.000
0.456	0.000
0.506	0.000
0.556	0.000
0.606	0.000
0.656	0.000
0.707	0.000
0.756	0.000
0.806	0.000
0.856	0.675
0.906	1.768
0.956	3.409
1.006	4.502
1.056	5.595
1.106	7.236
1.156	8.329
1.206	9.969
1.256	11.063
1.306	12.156
1.356	13.797
1.406	14.890
1.456	15.984
1.506	17.077
1.556	18.171
1.606	19.264
1.656	20.904
1.706	21.998
1.756	22.545
1.806	23.638
1.856	24.732
1.906	25.825
1.956	26.372
2.006	27.465
2.056	28.559
2.106	29.105
2.156	30.199
2.206	30.746
2.256	31.839
2.306	32.933
2.356	33.479
2.406	34.026
2.456	35.120
2.506	35.666
2.556	36.760
2.606	37.307
2.656	37.853
2.706	38.400
2.756	39.494
2.806	40.040
2.856	40.587
2.906	41.134
2.957	42.227
3.006	42.774
3.056	43.321
3.106	43.868
3.156	44.961
3.206	45.508
3.256	46.055
3.306	46.601
3.356	47.695
3.406	48.241
3.456	48.788
3.506	49.335
3.556	49.882
3.606	50.975
3.656	51.522
3.706	52.069
3.756	52.615
3.806	53.162
3.856	53.709
3.906	54.256
3.956	55.349
4.006	55.896
4.056	56.443
4.106	56.989
4.156	57.536
4.206	58.083
4.256	59.176
4.306	59.723
4.356	60.270
4.406	60.817
4.456	61.363
4.506	61.910
4.556	62.457
4.606	63.550
4.656	64.097
4.706	64.644
4.756	65.191
4.807	65.737
4.857	66.284
4.906	66.831
4.956	67.924
5.007	68.471
5.056	69.018
5.106	69.564
5.156	70.111
5.206	70.658
5.256	71.751
5.306	72.298
5.356	72.845
5.406	73.392
5.456	73.938
5.506	74.485
5.556	75.032
5.608	76.125
5.656	76.125
5.706	77.219
5.756	77.766
5.806	78.312
5.856	78.859
5.906	79.406
5.956	79.953
6.006	80.499
6.056	81.593
6.106	82.140
6.156	82.686
6.206	83.233
6.256	83.780
6.306	84.327
6.356	85.420
6.407	85.967
6.456	86.514
6.506	87.060
6.556	87.607
6.756	90.341
6.806	90.887
6.856	91.434
6.906	91.981
6.956	92.528
7.006	93.074
7.056	93.621
7.106	94.715
7.156	95.261
7.206	95.808
7.256	96.355
7.306	96.902
7.356	97.448
7.406	98.542
7.456	98.542
7.506	99.635
7.556	100.182
7.606	100.729
7.657	101.276
7.706	101.822
7.756	102.369
7.806	102.916
7.856	104.009
7.906	104.009
7.956	105.103
8.006	105.650
8.056	106.196
8.106	106.743
8.156	107.290
8.206	107.837
8.256	108.383
8.306	109.477
8.356	110.024
8.407	110.570
8.456	111.117
8.506	111.664
8.556	112.210
8.606	112.757
8.656	113.304
8.706	113.851
8.756	114.397
8.806	115.491
8.856	116.038
8.906	116.584
8.956	117.131
9.006	117.678
9.056	118.225
9.106	118.771
9.156	119.865
9.206	120.412
9.256	120.958
9.306	121.505
9.356	122.052
9.406	122.599
9.456	123.145
9.506	124.239
9.556	124.786
9.607	125.332
9.656	125.879
9.706	126.426
9.756	126.973
9.806	127.519
9.857	128.066
9.906	129.160
9.956	129.706
10.006	130.253
10.057	130.800
10.107	131.347
10.156	131.893
10.206	132.440
10.256	132.987
10.306	133.533
10.356	134.080
10.406	135.174
10.456	135.720
10.506	136.267
10.556	136.814
10.606	137.361
10.656	137.907
10.707	138.454
10.756	139.001
10.806	139.548
10.856	140.641
10.906	141.188
10.957	141.735
11.006	142.281
11.056	142.828
11.106	143.922
11.156	143.922
11.206	144.468
11.256	145.015
11.306	146.109
11.356	146.655
11.406	147.202
11.456	147.749
11.506	148.296
11.556	148.842
11.606	149.389
11.656	149.936
11.706	151.029
11.756	151.576
11.806	152.123
11.856	152.670
11.906	153.216
11.956	153.763
12.006	154.310
12.056	154.856
12.106	155.403
12.156	155.950
12.206	157.043
12.256	157.590
12.306	158.137
12.356	158.684
12.406	159.230
12.457	159.777
12.506	160.324
12.556	161.417
12.606	161.964
12.656	162.511
12.706	163.058
12.756	163.604
12.806	164.151
12.857	164.698
12.906	165.245
12.956	166.338
13.006	166.885
13.056	167.432
13.106	167.978
13.156	168.525
13.206	169.072
13.256	169.619
13.306	170.165
13.356	170.712
13.406	171.806
13.456	172.352
13.506	172.899
13.556	173.446
13.606	173.992
13.656	174.539
13.706	175.086
13.756	176.179
13.806	176.726
13.856	177.273
13.906	177.820
13.956	178.366
14.006	178.913
14.056	179.460
14.106	180.007
14.156	180.553
14.206	181.100
14.256	182.194
14.306	182.740
14.356	183.287
14.406	183.834
14.456	184.381
14.506	184.927
14.556	185.474
14.606	186.021
14.656	187.114
14.706	187.661
14.756	188.208
14.806	188.755
14.857	189.301
14.906	189.848
14.956	190.395
15.006	190.942
15.056	191.488
15.106	192.035
15.156	192.582
15.206	193.675
15.257	194.222
15.306	194.769
15.356	195.316
15.407	195.862
15.456	196.409
15.506	196.956
15.556	197.502
15.606	198.596
15.656	199.143
15.706	199.689
15.756	200.236
15.806	200.783
15.856	201.330
15.906	201.876
15.956	202.423
16.006	202.970
16.056	204.063
16.106	204.610
16.156	205.157
16.206	205.704
16.256	206.250
16.306	206.797
16.356	207.344
16.406	208.437
16.456	208.984
16.506	209.531
16.556	210.078
16.606	210.624
16.656	211.171
16.706	211.718
16.756	212.265
16.806	212.811
16.856	213.358
16.906	214.452
16.956	214.998
17.006	215.545
17.056	216.092
17.106	216.638
17.156	217.185
17.206	217.732
17.256	218.279
17.306	218.825
17.356	219.372
17.406	220.466
17.456	221.012
17.506	221.559
17.557	222.106
17.606	222.653
17.656	223.199
17.706	223.746
17.756	224.293
17.806	224.840
17.856	225.933
17.906	226.480
17.956	227.027
18.006	227.573
18.056	228.120
18.106	228.667
18.156	229.214
18.206	229.760
18.256	230.307
18.306	230.854
18.356	231.401
18.406	232.494
18.456	233.041
18.506	233.588
18.556	234.134
18.606	234.681
18.656	235.228
18.706	235.775
18.756	236.321
18.806	237.415
18.856	237.962
18.906	238.508
18.956	239.055
19.006	239.602
19.056	240.148
19.106	240.695
19.156	241.242
19.206	241.789
19.256	242.335
19.306	243.429
19.357	243.429
19.406	243.976
19.456	245.069
19.506	245.616
19.556	246.163
19.606	246.709
19.656	247.256
19.706	247.803
19.756	248.350
19.806	249.443
19.856	249.990
19.906	250.537
19.956	251.083
20.006	251.630
20.056	252.177
20.106	252.724
20.156	253.270
20.206	253.817
20.256	254.364
20.306	254.364
20.356	254.911
20.406	254.911
20.456	255.457
20.506	0.000
20.556	0.000
20.606	0.000
20.656	0.000
20.706	0.000
20.756	0.000
20.806	0.000
20.856	0.000
20.906	0.000
20.956	0.000