Voltage (V),Current (mA),Voltage Error,Current Error
0.089,1.1,0.002,0.1
0.187,2.0,0.005,0.1
0.271,2.7,0.007,0.2
0.368,3.0,0.009,0.2
0.46,3.9,0.01,0.3
0.55,4.4,0.01,0.3
0.65,4.8,0.02,0.4
0.75,5.1,0.02,0.4
0.84,5.3,0.02,0.4
0.94,5.6,0.02,0.4
1.04,5.9,0.03,0.4
1.14,6.1,0.03,0.5
1.23,6.3,0.03,0.5
1.33,6.6,0.03,0.5
1.43,6.8,0.04,0.5